9.999999999999998890e-01 1.203244107350120507e-04
9.894579380484205267e-01 1.746970133693257670e-03
9.789170477221889044e-01 3.424864311050313231e-03
9.683785005164411430e-01 5.155588365369144672e-03
9.578434676659028923e-01 6.937156590574353188e-03
9.473131200147204556e-01 8.768558521687145821e-03
9.367886278863364335e-01 1.065343114146278733e-02
9.262711609534211021e-01 1.259415028188633386e-02
9.157618881078770645e-01 1.458839317444448475e-02
9.052619773309316109e-01 1.662602314359922298e-02
8.947725955633289985e-01 1.868355207976418741e-02
8.842949085756387495e-01 2.074998479050243344e-02
8.738300808386934015e-01 2.283618461569806440e-02
8.633792753941731402e-01 2.494038329970005297e-02
8.529436537253458628e-01 2.704147566144430095e-02
8.425243756279822138e-01 2.912157447752899628e-02
8.321225990814590245e-01 3.116834889978783649e-02
8.217394801200630372e-01 3.317825388241254364e-02
8.113761727045106786e-01 3.515559423741719536e-02
8.010338285937002034e-01 3.710118271731260159e-02
7.907135972167069760e-01 3.901291960934954312e-02
7.804166255450371015e-01 4.089041583820770404e-02
7.701440579651563922e-01 4.273446051262121820e-02
7.598970361513051053e-01 4.454551459899053906e-02
7.496766989386134394e-01 4.632368946522045366e-02
7.394841821965345563e-01 4.806790548994574475e-02
7.293206187026060050e-01 4.977739238089727569e-02
7.191871380165538730e-01 5.145699239132934394e-02
7.090848663547572039e-01 5.311306526202831668e-02
6.990149264650814542e-01 5.474827305540087147e-02
6.889784375020977514e-01 5.636383984273871106e-02
6.789765149027036095e-01 5.796001818083913043e-02
6.690102702621547603e-01 5.953506564230488102e-02
6.590808112105230876e-01 6.108107455409714920e-02
6.491892412895989839e-01 6.259122443877136732e-02
6.393366598302444581e-01 6.406591547386226992e-02
6.295241618302156450e-01 6.550602662954647937e-02
6.197528378324663745e-01 6.691039818458395516e-02
6.100237738039482327e-01 6.827898324185384393e-02
6.003380510149177729e-01 6.961466514695738295e-02
5.906967459187653091e-01 7.092446878839776814e-02
5.811009300323815019e-01 7.222173833941569754e-02
5.715516698170692855e-01 7.351404973477831950e-02
5.620500265600203438e-01 7.479972209660666616e-02
5.525970562563653488e-01 7.607270389998121995e-02
5.431938094918128401e-01 7.732273424421756691e-02
5.338413313258880688e-01 7.854427611687204991e-02
5.245406611757882365e-01 7.973690258437575451e-02
5.152928327008634568e-01 8.090108559115063991e-02
5.060988736877365390e-01 8.203780009877278956e-02
4.969598059360780251e-01 8.314703576048941558e-02
4.878766451450451402e-01 8.422726648196476873e-02
4.788504008003974244e-01 8.526846204433050080e-02
4.698820760623064752e-01 8.625691110539128459e-02
4.609726676538650203e-01 8.719162712728056874e-02
4.521231657503131940e-01 8.807726964719969631e-02
4.433345538689928977e-01 8.891237828319557834e-02
4.346078087600411255e-01 8.969527411613149870e-02
4.259439002978354649e-01 9.043799423218312761e-02
4.173437913732044313e-01 9.115523298380093231e-02
4.088084377864137364e-01 9.185142609623891952e-02
4.003387881409395943e-01 9.252768469610268831e-02
3.919357837380436083e-01 9.318386112069920735e-02
3.836003584721576765e-01 9.381974533619008572e-02
3.753334387270930161e-01 9.443588865531582499e-02
3.671359432730831873e-01 9.503282356291850586e-02
3.590087831646743277e-01 9.561063919563550506e-02
3.509528616394713696e-01 9.616959140583430932e-02
3.429690740177547825e-01 9.671042587905288868e-02
3.350583076029753915e-01 9.723089397576832604e-02
3.272214415831418144e-01 9.772322127608633335e-02
3.194593469331089564e-01 9.818280367329508540e-02
3.117728863177794407e-01 9.861079883655297917e-02
3.041629139962280792e-01 9.900857192651918437e-02
2.966302757267624823e-01 9.937710152455195289e-02
2.891758086729252497e-01 9.971669577316304156e-02
2.818003413104546162e-01 1.000270547483954608e-01
2.745046933352085494e-01 1.003097386483930986e-01
2.672896755720651774e-01 1.005677733849217187e-01
2.601560898848094272e-01 1.008000786819666095e-01
2.531047290870154232e-01 1.010013641441776938e-01
2.461363768539343022e-01 1.011547127242254651e-01
2.392518076353984391e-01 1.012378960759268698e-01
2.324517865697500740e-01 1.012494338400651006e-01
2.257370693988056676e-01 1.011982916124033322e-01
2.191084023838638650e-01 1.010860264481436011e-01
2.125665222227673956e-01 1.009109317031976483e-01
2.061121559680280102e-01 1.006724165437631463e-01
1.997460209460230063e-01 1.003704504132404002e-01
1.934688246772731102e-01 1.000056520722384795e-01
1.872812647978095990e-01 9.957723767931338232e-02
1.811840289816407656e-01 9.907773999755907501e-02
1.751777948643248317e-01 9.850189394003892873e-02
1.692632299676588570e-01 9.785791939912855120e-02
1.634409916254914164e-01 9.715253504413083607e-02
1.577117269106679265e-01 9.638005192425404266e-02
1.520760725631161714e-01 9.553249290611831590e-02
1.465346549190801317e-01 9.460167003823201359e-02
1.410880898415101115e-01 9.358524110217930625e-02
1.357369826516168221e-01 9.249234510237086537e-02
1.304819280615971966e-01 9.133019597440975024e-02
1.253235101085391490e-01 9.010071572196370893e-02
1.202623020895129402e-01 8.880843019362755220e-02
1.152988664978553679e-01 8.746198276503536206e-02
1.104337549606562163e-01 8.606513842620236443e-02
1.056675081774507419e-01 8.461552201163820286e-02
1.010006558601274085e-01 8.310836441785524054e-02
9.643371667405697956e-02 8.153747698455715565e-02
9.196719818044885031e-02 7.990664473630021414e-02
8.760159677994161509e-02 7.822741217245558765e-02
8.333739765743386485e-02 7.650394396566929933e-02
7.917507472816209813e-02 7.473504205515607568e-02
7.511509058502996439e-02 7.291914048429787298e-02
7.115789644719716645e-02 7.105577747701562197e-02
6.730393210993146358e-02 6.915484924334576455e-02
6.355362589573076981e-02 6.722883398191470405e-02
5.990739460672012129e-02 6.527338518470518491e-02
5.636564347832906385e-02 6.327927328532506612e-02
5.292876613425423482e-02 6.124839965289487209e-02
4.959714454271368922e-02 5.918672596091771598e-02
4.637114897399441382e-02 5.710140469122154672e-02
4.325113795930202176e-02 5.500114867871118418e-02
4.023745825091396000e-02 5.289920734598021340e-02
3.733044478364233587e-02 5.080525510267257933e-02
3.453042063760936031e-02 4.871483608020112099e-02
3.183769700234129196e-02 4.661380005781331354e-02
2.925257314218321358e-02 4.447039056997137418e-02
2.677533636303963682e-02 4.226999575632491013e-02
2.440626198044326678e-02 4.003981989291355986e-02
2.214561328895736647e-02 3.780467142547114245e-02
1.999364153291383062e-02 3.557583953576391733e-02
1.795058587848985532e-02 3.336546547251158928e-02
1.601667338712764455e-02 3.118900067829945277e-02
1.419211899029970692e-02 2.906237221943514665e-02
1.247712546562085301e-02 2.700151648581576927e-02
1.087188341431266636e-02 2.501604581002963429e-02
9.376571240020115106e-03 2.310602182783710878e-02
7.991355128984078959e-03 2.121720764174213347e-02
6.716389031571567969e-03 1.925597191879546352e-02
5.551814645166519568e-03 1.724979346785239509e-02
4.497761398421062928e-03 1.530532578697626524e-02
3.554346436871580472e-03 1.338736123610137496e-02
2.721674609919344512e-03 1.139841451286611844e-02
1.999838459177394334e-03 9.496332224934522087e-03
1.388918208186096237e-03 7.903807096515617220e-03
8.889817534969424173e-04 6.329191130820198928e-03
5.000846571264760954e-04 4.366194656535744498e-03
2.222701403818971855e-04 2.277958482268040239e-03
5.556907905679420168e-05 6.033830082314206242e-04
0.000000000000000000e+00 2.590715267140037453e-05
0.000000000000000000e+00 -2.658346562223833274e-06
5.556907905679420168e-05 -2.463536661217273212e-04
2.222701403818971855e-04 -9.485655300387324778e-04
5.000846571264760954e-04 -2.096709678003704815e-03
8.889817534969424173e-04 -3.592448435593422699e-03
1.388918208186096237e-03 -5.328427519517584497e-03
1.999838459177394334e-03 -7.220501831362764918e-03
2.721674609919344512e-03 -9.125834531588673457e-03
3.554346436871580472e-03 -1.076137499356728290e-02
4.497761398421062928e-03 -1.200370247696282665e-02
5.551814645166519568e-03 -1.306689893035278133e-02
6.716389031571567969e-03 -1.412251961338647187e-02
7.991355128984078959e-03 -1.521432578274820556e-02
9.376571240020115106e-03 -1.635099270710398123e-02
1.087188341431266636e-02 -1.750884000649198177e-02
1.247712546562085301e-02 -1.864506687575355828e-02
1.419211899029970692e-02 -1.969954417913075476e-02
1.601667338712764455e-02 -2.064709177963978612e-02
1.795058587848985532e-02 -2.149898933816326782e-02
1.999364153291383062e-02 -2.230414164649118999e-02
2.214561328895736647e-02 -2.313502807983284365e-02
2.440626198044326678e-02 -2.399663963659452379e-02
2.677533636303963682e-02 -2.485122851882439615e-02
2.925257314218321358e-02 -2.569369391376156997e-02
3.183769700234129196e-02 -2.653544674045371990e-02
3.453042063760936031e-02 -2.736826664944884413e-02
3.733044478364233587e-02 -2.817653619585071961e-02
4.023745825091396000e-02 -2.895763085608818801e-02
4.325113795930202176e-02 -2.971158787529595141e-02
4.637114897399441382e-02 -3.042530404907175384e-02
4.959714454271368922e-02 -3.108726668946735702e-02
5.292876613425423482e-02 -3.171147700240341955e-02
5.636564347832906385e-02 -3.231588450403942436e-02
5.990739460672012129e-02 -3.290794555505285185e-02
6.355362589573076981e-02 -3.349008247162834490e-02
6.730393210993146358e-02 -3.405678925672323692e-02
7.115789644719716645e-02 -3.460307088846144991e-02
7.511509058502996439e-02 -3.512869270446871556e-02
7.917507472816209813e-02 -3.563182875173064729e-02
8.333739765743386485e-02 -3.610602339395412030e-02
8.760159677994161509e-02 -3.654828292303120840e-02
9.196719818044885031e-02 -3.696253268480705068e-02
9.643371667405697956e-02 -3.735652304838896209e-02
1.010006558601274085e-01 -3.774228076511713936e-02
1.056675081774507419e-01 -3.812426830081553503e-02
1.104337549606562163e-01 -3.849755352715364398e-02
1.152988664978553679e-01 -3.885995946269744927e-02
1.202623020895129402e-01 -3.921256767105921887e-02
1.253235101085391490e-01 -3.955446508658367472e-02
1.304819280615971966e-01 -3.988303293100182306e-02
1.357369826516168221e-01 -4.019745909475857387e-02
1.410880898415101115e-01 -4.049804571801532416e-02
1.465346549190801317e-01 -4.078257901169072414e-02
1.520760725631161714e-01 -4.104798812253583618e-02
1.577117269106679265e-01 -4.129714703206639054e-02
1.634409916254914164e-01 -4.153557719439425477e-02
1.692632299676588570e-01 -4.176605221739999180e-02
1.751777948643248317e-01 -4.198995948575515863e-02
1.811840289816407656e-01 -4.220751048203910671e-02
1.872812647978095990e-01 -4.241883125225538731e-02
1.934688246772731102e-01 -4.262558446133628970e-02
1.997460209460230063e-01 -4.282930632646481800e-02
2.061121559680280102e-01 -4.302931981921629540e-02
2.125665222227673956e-01 -4.322466126438920253e-02
2.191084023838638650e-01 -4.341514547981635552e-02
2.257370693988056676e-01 -4.360071352437876191e-02
2.324517865697500740e-01 -4.378123224157284138e-02
2.392518076353984391e-01 -4.395626084311164694e-02
2.461363768539343022e-01 -4.412470845843699530e-02
2.531047290870154232e-01 -4.428498606810690741e-02
2.601560898848094272e-01 -4.443476750377475110e-02
2.672896755720651774e-01 -4.457260550721217629e-02
2.745046933352085494e-01 -4.469851321804084454e-02
2.818003413104546162e-01 -4.481227794507511991e-02
2.891758086729252497e-01 -4.491323845019194044e-02
2.966302757267624823e-01 -4.500079421410359271e-02
3.041629139962280792e-01 -4.507445512554934114e-02
3.117728863177794407e-01 -4.513396985726267352e-02
3.194593469331089564e-01 -4.517900186749867347e-02
3.272214415831418144e-01 -4.520468668863630857e-02
3.350583076029753915e-01 -4.520313616287589126e-02
3.429690740177547825e-01 -4.517218057680539439e-02
3.509528616394713696e-01 -4.511308068785178926e-02
3.590087831646743277e-01 -4.502376409408317959e-02
3.671359432730831873e-01 -4.490118519485907650e-02
3.753334387270930161e-01 -4.474901493327076984e-02
3.836003584721576765e-01 -4.457393187069232793e-02
3.919357837380436083e-01 -4.438215009566105068e-02
4.003387881409395943e-01 -4.417855314198499556e-02
4.088084377864137364e-01 -4.396222099338056855e-02
4.173437913732044313e-01 -4.373099429133514571e-02
4.259439002978354649e-01 -4.348517083871013961e-02
4.346078087600411255e-01 -4.322534973647979006e-02
4.433345538689928977e-01 -4.295097429583188964e-02
4.521231657503131940e-01 -4.266140825073626297e-02
4.609726676538650203e-01 -4.235648967450007796e-02
4.698820760623064752e-01 -4.203617044288596866e-02
4.788504008003974244e-01 -4.170046716339680104e-02
4.878766451450451402e-01 -4.134853334884816545e-02
4.969598059360780251e-01 -4.097782304176699614e-02
5.060988736877365390e-01 -4.058643530655946935e-02
5.152928327008634568e-01 -4.017385716331035167e-02
5.245406611757882365e-01 -3.973979348328667699e-02
5.338413313258880688e-01 -3.928406863110393138e-02
5.431938094918128401e-01 -3.880640865894736252e-02
5.525970562563653488e-01 -3.830642248839759290e-02
5.620500265600203438e-01 -3.778388775202994737e-02
5.715516698170692855e-01 -3.723873677477757688e-02
5.811009300323815019e-01 -3.667060488533663287e-02
5.906967459187653091e-01 -3.607893877134908667e-02
6.003380510149177729e-01 -3.546400761919385469e-02
6.100237738039482327e-01 -3.482655019574765198e-02
6.197528378324663745e-01 -3.416617686081024896e-02
6.295241618302156450e-01 -3.348201857706678553e-02
6.393366598302444581e-01 -3.277477288505709768e-02
6.491892412895989839e-01 -3.204544354951450319e-02
6.590808112105230876e-01 -3.129189829400071815e-02
6.690102702621547603e-01 -3.051200386374234089e-02
6.789765149027036095e-01 -2.971067552251455829e-02
6.889784375020977514e-01 -2.889622749754296865e-02
6.990149264650814542e-01 -2.808146471842409495e-02
7.090848663547572039e-01 -2.727740714457816892e-02
7.191871380165538730e-01 -2.648380348978417870e-02
7.293206187026060050e-01 -2.569812024832771394e-02
7.394841821965345563e-01 -2.491880138297228320e-02
7.496766989386134394e-01 -2.413951421084086987e-02
7.598970361513051053e-01 -2.334142231454981037e-02
7.701440579651563922e-01 -2.251164764906990814e-02
7.804166255450371015e-01 -2.165393538797070333e-02
7.907135972167069760e-01 -2.077117663106056722e-02
8.010338285937002034e-01 -1.986107596159067401e-02
8.113761727045106786e-01 -1.892245413630910464e-02
8.217394801200630372e-01 -1.795648081472329266e-02
8.321225990814590245e-01 -1.696135296716642579e-02
8.425243756279822138e-01 -1.593143951081597842e-02
8.529436537253458628e-01 -1.486399325254151617e-02
8.633792753941731402e-01 -1.375954800967236179e-02
8.738300808386934015e-01 -1.261852598550321919e-02
8.842949085756387495e-01 -1.144207312057657008e-02
8.947725955633289985e-01 -1.024514628639366931e-02
9.052619773309316109e-01 -9.051343459639388939e-03
9.157618881078770645e-01 -7.865248004764820514e-03
9.262711609534211021e-01 -6.680254584456185758e-03
9.367886278863364335e-01 -5.498162250439410544e-03
9.473131200147204556e-01 -4.329946103626519140e-03
9.578434676659028923e-01 -3.220284072508271429e-03
9.683785005164411430e-01 -2.220528656898843305e-03
9.789170477221889044e-01 -1.333522029260000852e-03
9.894579380484205267e-01 -5.484077412944925829e-04
9.999999999999998890e-01 1.255993667779863748e-04
